Frequency	Gain
 0.00000	 0.00023
 5.00000	 0.00064
10.00000	 0.00076
15.00000	 0.00093
20.00000	 0.00105
25.00000	 0.00112
30.00000	 0.00114
35.00000	 0.00113
40.00000	 0.00138
45.00000	 0.00158
50.00000	 0.00164
55.00000	 0.00165
60.00000	 0.00168
65.00000	 0.00173
70.00000	 0.00177
75.00000	 0.00183
80.00000	 0.00187
85.00000	 0.00197
90.00000	 0.00206
95.00000	 0.00219
100.00000	 0.00234
105.00000	 0.00251
110.00000	 0.00274
115.00000	 0.00298
120.00000	 0.00322
125.00000	 0.00376
130.00000	 0.00438
135.00000	 0.00537
140.00000	 0.00675
145.00000	 0.00931
150.00000	 0.01495
155.00000	 0.03115
160.00000	 0.02562
165.00000	 0.01266
170.00000	 0.00807
175.00000	 0.00582
180.00000	 0.00454
185.00000	 0.00371
190.00000	 0.00311
195.00000	 0.00268
200.00000	 0.00241
205.00000	 0.00209
210.00000	 0.00195
215.00000	 0.00172
220.00000	 0.00165
225.00000	 0.00152
230.00000	 0.00143
235.00000	 0.00133
240.00000	 0.00130
245.00000	 0.00125
250.00000	 0.00122
255.00000	 0.00122
260.00000	 0.00125
265.00000	 0.00128
270.00000	 0.00134
275.00000	 0.00143
280.00000	 0.00157
285.00000	 0.00177
290.00000	 0.00203
295.00000	 0.00242
300.00000	 0.00304
305.00000	 0.00398
310.00000	 0.00576
315.00000	 0.00823
320.00000	 0.00843
325.00000	 0.00609
330.00000	 0.00434
335.00000	 0.00334
340.00000	 0.00268
345.00000	 0.00227
350.00000	 0.00196
355.00000	 0.00176
360.00000	 0.00159
365.00000	 0.00145
370.00000	 0.00137
375.00000	 0.00129
380.00000	 0.00123
385.00000	 0.00116
390.00000	 0.00113
395.00000	 0.00110
400.00000	 0.00109
405.00000	 0.00108
410.00000	 0.00109
415.00000	 0.00111
420.00000	 0.00114
425.00000	 0.00117
430.00000	 0.00123
435.00000	 0.00130
440.00000	 0.00143
445.00000	 0.00157
450.00000	 0.00173
455.00000	 0.00200
460.00000	 0.00239
465.00000	 0.00295
470.00000	 0.00374
475.00000	 0.00497
480.00000	 0.00616
485.00000	 0.00597
490.00000	 0.00459
495.00000	 0.00348
500.00000	 0.00267
505.00000	 0.00224
510.00000	 0.00187
515.00000	 0.00160
520.00000	 0.00139
525.00000	 0.00129
530.00000	 0.00115
535.00000	 0.00106
540.00000	 0.00099
545.00000	 0.00094
550.00000	 0.00089
555.00000	 0.00086
560.00000	 0.00084
565.00000	 0.00083
570.00000	 0.00083
575.00000	 0.00084
580.00000	 0.00086
585.00000	 0.00088
590.00000	 0.00092
595.00000	 0.00101
600.00000	 0.00110
605.00000	 0.00122
610.00000	 0.00138
615.00000	 0.00161
620.00000	 0.00195
625.00000	 0.00240
630.00000	 0.00310
635.00000	 0.00420
640.00000	 0.00604
645.00000	 0.00811
650.00000	 0.00746
655.00000	 0.00537
660.00000	 0.00399
665.00000	 0.00319
670.00000	 0.00262
675.00000	 0.00223
680.00000	 0.00197
685.00000	 0.00178
690.00000	 0.00161
695.00000	 0.00149
700.00000	 0.00138
705.00000	 0.00129
710.00000	 0.00123
715.00000	 0.00116
720.00000	 0.00111
725.00000	 0.00107
730.00000	 0.00103
735.00000	 0.00099
740.00000	 0.00098
745.00000	 0.00095
750.00000	 0.00093
755.00000	 0.00092
760.00000	 0.00092
765.00000	 0.00092
770.00000	 0.00093
775.00000	 0.00095
780.00000	 0.00097
785.00000	 0.00103
790.00000	 0.00111
795.00000	 0.00127
800.00000	 0.00158
805.00000	 0.00200
810.00000	 0.00180
815.00000	 0.00090
820.00000	 0.00045
825.00000	 0.00023
830.00000	 0.00015
835.00000	 0.00013
840.00000	 0.00015
845.00000	 0.00016
850.00000	 0.00017
855.00000	 0.00019
860.00000	 0.00018
865.00000	 0.00019
870.00000	 0.00019
875.00000	 0.00019
880.00000	 0.00018
885.00000	 0.00018
890.00000	 0.00017
895.00000	 0.00015
900.00000	 0.00014
905.00000	 0.00013
910.00000	 0.00011
915.00000	 0.00011
920.00000	 0.00011
925.00000	 0.00013
930.00000	 0.00017
935.00000	 0.00020
940.00000	 0.00030
945.00000	 0.00045
950.00000	 0.00059
955.00000	 0.00091
960.00000	 0.00148
965.00000	 0.00269
970.00000	 0.00456
975.00000	 0.00341
980.00000	 0.00224
985.00000	 0.00171
990.00000	 0.00138
995.00000	 0.00119
1000.00000	 0.00107
1005.00000	 0.00097
1010.00000	 0.00090
1015.00000	 0.00084
1020.00000	 0.00080
1025.00000	 0.00076
1030.00000	 0.00074
1035.00000	 0.00072
1040.00000	 0.00070
1045.00000	 0.00068
1050.00000	 0.00068
1055.00000	 0.00067
1060.00000	 0.00067
1065.00000	 0.00066
1070.00000	 0.00067
1075.00000	 0.00068
1080.00000	 0.00068
1085.00000	 0.00070
1090.00000	 0.00073
1095.00000	 0.00075
1100.00000	 0.00080
1105.00000	 0.00086
1110.00000	 0.00096
1115.00000	 0.00111
1120.00000	 0.00139
1125.00000	 0.00194
1130.00000	 0.00315
1135.00000	 0.00315
1140.00000	 0.00162
1145.00000	 0.00097
1150.00000	 0.00066
1155.00000	 0.00051
1160.00000	 0.00043
1165.00000	 0.00036
1170.00000	 0.00032
1175.00000	 0.00030
1180.00000	 0.00029
1185.00000	 0.00027
1190.00000	 0.00028
1195.00000	 0.00027
1200.00000	 0.00026
1205.00000	 0.00026
1210.00000	 0.00025
1215.00000	 0.00026
1220.00000	 0.00025
1225.00000	 0.00025
1230.00000	 0.00026
1235.00000	 0.00024
1240.00000	 0.00024
1245.00000	 0.00024
1250.00000	 0.00024
1255.00000	 0.00023
1260.00000	 0.00023
1265.00000	 0.00021
1270.00000	 0.00020
1275.00000	 0.00020
1280.00000	 0.00017
1285.00000	 0.00012
1290.00000	 0.00027
1295.00000	 0.00055
1300.00000	 0.00064
1305.00000	 0.00057
1310.00000	 0.00046
1315.00000	 0.00039
1320.00000	 0.00038
1325.00000	 0.00037
1330.00000	 0.00036
1335.00000	 0.00035
1340.00000	 0.00034
1345.00000	 0.00035
1350.00000	 0.00035
1355.00000	 0.00035
1360.00000	 0.00034
1365.00000	 0.00034
1370.00000	 0.00034
1375.00000	 0.00035
1380.00000	 0.00036
1385.00000	 0.00036
1390.00000	 0.00036
1395.00000	 0.00037
1400.00000	 0.00037
1405.00000	 0.00039
1410.00000	 0.00040
1415.00000	 0.00041
1420.00000	 0.00045
1425.00000	 0.00047
1430.00000	 0.00052
1435.00000	 0.00057
1440.00000	 0.00065
1445.00000	 0.00079
1450.00000	 0.00107
1455.00000	 0.00171
1460.00000	 0.00234
1465.00000	 0.00122
1470.00000	 0.00065
1475.00000	 0.00043
1480.00000	 0.00030
1485.00000	 0.00024
1490.00000	 0.00019
1495.00000	 0.00018
1500.00000	 0.00017
1505.00000	 0.00016
1510.00000	 0.00016
1515.00000	 0.00016
1520.00000	 0.00016
1525.00000	 0.00017
1530.00000	 0.00017
1535.00000	 0.00017
1540.00000	 0.00018
1545.00000	 0.00019
1550.00000	 0.00019
1555.00000	 0.00019
1560.00000	 0.00019
1565.00000	 0.00020
1570.00000	 0.00021
1575.00000	 0.00022
1580.00000	 0.00024
1585.00000	 0.00025
1590.00000	 0.00026
1595.00000	 0.00029
1600.00000	 0.00034
1605.00000	 0.00041
1610.00000	 0.00052
1615.00000	 0.00074
1620.00000	 0.00130
1625.00000	 0.00129
1630.00000	 0.00070
1635.00000	 0.00045
1640.00000	 0.00033
1645.00000	 0.00027
1650.00000	 0.00023
1655.00000	 0.00020
1660.00000	 0.00020
1665.00000	 0.00018
1670.00000	 0.00018
1675.00000	 0.00017
1680.00000	 0.00016
1685.00000	 0.00017
1690.00000	 0.00017
1695.00000	 0.00016
1700.00000	 0.00017
1705.00000	 0.00017
1710.00000	 0.00017
1715.00000	 0.00017
1720.00000	 0.00017
1725.00000	 0.00017
1730.00000	 0.00017
1735.00000	 0.00018
1740.00000	 0.00019
1745.00000	 0.00019
1750.00000	 0.00020
1755.00000	 0.00021
1760.00000	 0.00022
1765.00000	 0.00025
1770.00000	 0.00027
1775.00000	 0.00034
1780.00000	 0.00045
1785.00000	 0.00067
1790.00000	 0.00043
1795.00000	 0.00018
1800.00000	 0.00007
1805.00000	 0.00003
1810.00000	 0.00001
1815.00000	 0.00004
1820.00000	 0.00004
1825.00000	 0.00005
1830.00000	 0.00007
1835.00000	 0.00007
1840.00000	 0.00008
1845.00000	 0.00007
1850.00000	 0.00009
1855.00000	 0.00009
1860.00000	 0.00008
1865.00000	 0.00009
1870.00000	 0.00009
1875.00000	 0.00009
1880.00000	 0.00010
1885.00000	 0.00010
1890.00000	 0.00010
1895.00000	 0.00011
1900.00000	 0.00012
1905.00000	 0.00012
1910.00000	 0.00013
1915.00000	 0.00015
1920.00000	 0.00017
1925.00000	 0.00020
1930.00000	 0.00025
1935.00000	 0.00033
1940.00000	 0.00048
1945.00000	 0.00082
1950.00000	 0.00129
1955.00000	 0.00088
1960.00000	 0.00056
1965.00000	 0.00042
1970.00000	 0.00034
1975.00000	 0.00029
1980.00000	 0.00025
1985.00000	 0.00023
1990.00000	 0.00022
1995.00000	 0.00020
2000.00000	 0.00019
2005.00000	 0.00018
2010.00000	 0.00018
2015.00000	 0.00017
2020.00000	 0.00017
2025.00000	 0.00017
2030.00000	 0.00016
2035.00000	 0.00015
2040.00000	 0.00015
2045.00000	 0.00014
2050.00000	 0.00014
2055.00000	 0.00014
2060.00000	 0.00014
2065.00000	 0.00013
2070.00000	 0.00013
2075.00000	 0.00013
2080.00000	 0.00013
2085.00000	 0.00013
2090.00000	 0.00012
2095.00000	 0.00012
2100.00000	 0.00013
2105.00000	 0.00017
2110.00000	 0.00026
2115.00000	 0.00031
2120.00000	 0.00023
2125.00000	 0.00019
2130.00000	 0.00016
2135.00000	 0.00015
2140.00000	 0.00014
2145.00000	 0.00014
2150.00000	 0.00013
2155.00000	 0.00013
2160.00000	 0.00013
2165.00000	 0.00013
2170.00000	 0.00012
2175.00000	 0.00011
2180.00000	 0.00012
2185.00000	 0.00011
2190.00000	 0.00011
2195.00000	 0.00010
2200.00000	 0.00010
2205.00000	 0.00010
2210.00000	 0.00010
2215.00000	 0.00010
2220.00000	 0.00010
2225.00000	 0.00009
2230.00000	 0.00009
2235.00000	 0.00008
2240.00000	 0.00008
2245.00000	 0.00008
2250.00000	 0.00007
2255.00000	 0.00007
2260.00000	 0.00011
2265.00000	 0.00017
2270.00000	 0.00032
2275.00000	 0.00064
2280.00000	 0.00056
2285.00000	 0.00038
2290.00000	 0.00030
2295.00000	 0.00027
2300.00000	 0.00023
2305.00000	 0.00021
2310.00000	 0.00020
2315.00000	 0.00019
2320.00000	 0.00018
2325.00000	 0.00017
2330.00000	 0.00017
2335.00000	 0.00017
2340.00000	 0.00016
2345.00000	 0.00016
2350.00000	 0.00016
2355.00000	 0.00016
2360.00000	 0.00016
2365.00000	 0.00015
2370.00000	 0.00015
2375.00000	 0.00015
2380.00000	 0.00015
2385.00000	 0.00015
2390.00000	 0.00015
2395.00000	 0.00015
2400.00000	 0.00015
2405.00000	 0.00016
2410.00000	 0.00016
2415.00000	 0.00016
2420.00000	 0.00019
2425.00000	 0.00022
2430.00000	 0.00029
2435.00000	 0.00045
2440.00000	 0.00049
2445.00000	 0.00032
2450.00000	 0.00023
2455.00000	 0.00018
2460.00000	 0.00017
2465.00000	 0.00016
2470.00000	 0.00015
2475.00000	 0.00014
2480.00000	 0.00014
2485.00000	 0.00014
2490.00000	 0.00014
2495.00000	 0.00014
2500.00000	 0.00013
2505.00000	 0.00013
2510.00000	 0.00013
2515.00000	 0.00013
2520.00000	 0.00013
2525.00000	 0.00013
2530.00000	 0.00013
2535.00000	 0.00012
2540.00000	 0.00013
2545.00000	 0.00013
2550.00000	 0.00012
2555.00000	 0.00013
2560.00000	 0.00012
2565.00000	 0.00012
2570.00000	 0.00013
2575.00000	 0.00013
2580.00000	 0.00013
2585.00000	 0.00014
2590.00000	 0.00016
2595.00000	 0.00018
2600.00000	 0.00023
2605.00000	 0.00017
2610.00000	 0.00013
2615.00000	 0.00014
2620.00000	 0.00013
2625.00000	 0.00013
2630.00000	 0.00012
2635.00000	 0.00012
2640.00000	 0.00012
2645.00000	 0.00012
2650.00000	 0.00013
2655.00000	 0.00013
2660.00000	 0.00012
2665.00000	 0.00012
2670.00000	 0.00012
2675.00000	 0.00012
2680.00000	 0.00012
2685.00000	 0.00012
2690.00000	 0.00013
2695.00000	 0.00013
2700.00000	 0.00013
2705.00000	 0.00013
2710.00000	 0.00013
2715.00000	 0.00013
2720.00000	 0.00013
2725.00000	 0.00014
2730.00000	 0.00015
2735.00000	 0.00015
2740.00000	 0.00016
2745.00000	 0.00018
2750.00000	 0.00022
2755.00000	 0.00028
2760.00000	 0.00037
2765.00000	 0.00027
2770.00000	 0.00018
2775.00000	 0.00014
2780.00000	 0.00012
2785.00000	 0.00011
2790.00000	 0.00010
2795.00000	 0.00011
2800.00000	 0.00010
2805.00000	 0.00010
2810.00000	 0.00010
2815.00000	 0.00010
2820.00000	 0.00011
2825.00000	 0.00011
2830.00000	 0.00011
2835.00000	 0.00011
2840.00000	 0.00011
2845.00000	 0.00011
2850.00000	 0.00011
2855.00000	 0.00011
2860.00000	 0.00012
2865.00000	 0.00012
2870.00000	 0.00013
2875.00000	 0.00012
2880.00000	 0.00012
2885.00000	 0.00013
2890.00000	 0.00014
2895.00000	 0.00014
2900.00000	 0.00016
2905.00000	 0.00017
2910.00000	 0.00020
2915.00000	 0.00026
2920.00000	 0.00035
2925.00000	 0.00030
2930.00000	 0.00018
2935.00000	 0.00012
2940.00000	 0.00010
2945.00000	 0.00008
2950.00000	 0.00009
2955.00000	 0.00008
2960.00000	 0.00008
2965.00000	 0.00008
2970.00000	 0.00008
2975.00000	 0.00008
2980.00000	 0.00008
2985.00000	 0.00008
2990.00000	 0.00009
2995.00000	 0.00009
3000.00000	 0.00008
3005.00000	 0.00009
3010.00000	 0.00009
3015.00000	 0.00009
3020.00000	 0.00009
3025.00000	 0.00009
3030.00000	 0.00009
3035.00000	 0.00010
3040.00000	 0.00009
3045.00000	 0.00010
3050.00000	 0.00010
3055.00000	 0.00010
3060.00000	 0.00011
3065.00000	 0.00011
3070.00000	 0.00012
3075.00000	 0.00014
3080.00000	 0.00016
3085.00000	 0.00011
3090.00000	 0.00006
3095.00000	 0.00004
3100.00000	 0.00005
3105.00000	 0.00005
3110.00000	 0.00006
3115.00000	 0.00007
3120.00000	 0.00007
3125.00000	 0.00007
3130.00000	 0.00007
3135.00000	 0.00007
3140.00000	 0.00007
3145.00000	 0.00008
3150.00000	 0.00007
3155.00000	 0.00008
3160.00000	 0.00008
3165.00000	 0.00008
3170.00000	 0.00008
3175.00000	 0.00008
3180.00000	 0.00008
3185.00000	 0.00009
3190.00000	 0.00009
3195.00000	 0.00009
3200.00000	 0.00010
3205.00000	 0.00010
3210.00000	 0.00011
3215.00000	 0.00011
3220.00000	 0.00013
3225.00000	 0.00014
3230.00000	 0.00016
3235.00000	 0.00023
3240.00000	 0.00033
3245.00000	 0.00041
3250.00000	 0.00029
3255.00000	 0.00019
3260.00000	 0.00014
3265.00000	 0.00011
3270.00000	 0.00010
3275.00000	 0.00009
3280.00000	 0.00009
3285.00000	 0.00008
3290.00000	 0.00008
3295.00000	 0.00007
3300.00000	 0.00007
3305.00000	 0.00007
3310.00000	 0.00006
3315.00000	 0.00006
3320.00000	 0.00007
3325.00000	 0.00007
3330.00000	 0.00007
3335.00000	 0.00007
3340.00000	 0.00006
3345.00000	 0.00006
3350.00000	 0.00006
3355.00000	 0.00006
3360.00000	 0.00007
3365.00000	 0.00007
3370.00000	 0.00006
3375.00000	 0.00006
3380.00000	 0.00006
3385.00000	 0.00005
3390.00000	 0.00006
3395.00000	 0.00004
3400.00000	 0.00002
3405.00000	 0.00004
3410.00000	 0.00009
3415.00000	 0.00008
3420.00000	 0.00009
3425.00000	 0.00008
3430.00000	 0.00008
3435.00000	 0.00008
3440.00000	 0.00008
3445.00000	 0.00008
3450.00000	 0.00008
3455.00000	 0.00007
3460.00000	 0.00007
3465.00000	 0.00008
3470.00000	 0.00007
3475.00000	 0.00007
3480.00000	 0.00007
3485.00000	 0.00007
3490.00000	 0.00007
3495.00000	 0.00007
3500.00000	 0.00007
3505.00000	 0.00007
3510.00000	 0.00007
3515.00000	 0.00007
3520.00000	 0.00007
3525.00000	 0.00007
3530.00000	 0.00007
3535.00000	 0.00007
3540.00000	 0.00008
3545.00000	 0.00008
3550.00000	 0.00009
3555.00000	 0.00012
3560.00000	 0.00016
3565.00000	 0.00024
3570.00000	 0.00029
3575.00000	 0.00023
3580.00000	 0.00016
3585.00000	 0.00013
3590.00000	 0.00012
3595.00000	 0.00010
3600.00000	 0.00010
3605.00000	 0.00009
3610.00000	 0.00009
3615.00000	 0.00008
3620.00000	 0.00009
3625.00000	 0.00008
3630.00000	 0.00008
3635.00000	 0.00008
3640.00000	 0.00008
3645.00000	 0.00008
3650.00000	 0.00007
3655.00000	 0.00007
3660.00000	 0.00008
3665.00000	 0.00007
3670.00000	 0.00007
3675.00000	 0.00007
3680.00000	 0.00007
3685.00000	 0.00006
3690.00000	 0.00006
3695.00000	 0.00007
3700.00000	 0.00006
3705.00000	 0.00006
3710.00000	 0.00005
3715.00000	 0.00005
3720.00000	 0.00006
3725.00000	 0.00008
3730.00000	 0.00014
3735.00000	 0.00016
3740.00000	 0.00015
3745.00000	 0.00012
3750.00000	 0.00011
3755.00000	 0.00010
3760.00000	 0.00010
3765.00000	 0.00010
3770.00000	 0.00009
3775.00000	 0.00009
3780.00000	 0.00008
3785.00000	 0.00009
3790.00000	 0.00008
3795.00000	 0.00009
3800.00000	 0.00008
3805.00000	 0.00009
3810.00000	 0.00008
3815.00000	 0.00008
3820.00000	 0.00008
3825.00000	 0.00008
3830.00000	 0.00008
3835.00000	 0.00008
3840.00000	 0.00008
3845.00000	 0.00008
3850.00000	 0.00008
3855.00000	 0.00007
3860.00000	 0.00008
3865.00000	 0.00008
3870.00000	 0.00008
3875.00000	 0.00008
3880.00000	 0.00008
3885.00000	 0.00008
3890.00000	 0.00011
3895.00000	 0.00014
3900.00000	 0.00012
3905.00000	 0.00010
3910.00000	 0.00009
3915.00000	 0.00009
3920.00000	 0.00008
3925.00000	 0.00008
3930.00000	 0.00008
3935.00000	 0.00008
3940.00000	 0.00008
3945.00000	 0.00008
3950.00000	 0.00007
3955.00000	 0.00008
3960.00000	 0.00008
3965.00000	 0.00007
3970.00000	 0.00008
3975.00000	 0.00007
3980.00000	 0.00008
3985.00000	 0.00007
3990.00000	 0.00008
3995.00000	 0.00007
4000.00000	 0.00007
4005.00000	 0.00007
4010.00000	 0.00007
4015.00000	 0.00007
4020.00000	 0.00007
4025.00000	 0.00007
4030.00000	 0.00007
4035.00000	 0.00007
4040.00000	 0.00008
4045.00000	 0.00008
4050.00000	 0.00010
4055.00000	 0.00014
4060.00000	 0.00016
4065.00000	 0.00013
4070.00000	 0.00011
4075.00000	 0.00010
4080.00000	 0.00009
4085.00000	 0.00009
4090.00000	 0.00009
4095.00000	 0.00009
4100.00000	 0.00008
4105.00000	 0.00008
4110.00000	 0.00008
4115.00000	 0.00009
4120.00000	 0.00008
4125.00000	 0.00009
4130.00000	 0.00008
4135.00000	 0.00009
4140.00000	 0.00009
4145.00000	 0.00009
4150.00000	 0.00009
4155.00000	 0.00008
4160.00000	 0.00009
4165.00000	 0.00008
4170.00000	 0.00009
4175.00000	 0.00009
4180.00000	 0.00009
4185.00000	 0.00010
4190.00000	 0.00010
4195.00000	 0.00010
4200.00000	 0.00011
4205.00000	 0.00013
4210.00000	 0.00014
4215.00000	 0.00017
4220.00000	 0.00017
4225.00000	 0.00011
4230.00000	 0.00006
4235.00000	 0.00004
4240.00000	 0.00004
4245.00000	 0.00005
4250.00000	 0.00005
4255.00000	 0.00005
4260.00000	 0.00005
4265.00000	 0.00005
4270.00000	 0.00005
4275.00000	 0.00006
4280.00000	 0.00005
4285.00000	 0.00006
4290.00000	 0.00006
4295.00000	 0.00006
4300.00000	 0.00006
4305.00000	 0.00006
4310.00000	 0.00006
4315.00000	 0.00006
4320.00000	 0.00006
4325.00000	 0.00007
4330.00000	 0.00006
4335.00000	 0.00006
4340.00000	 0.00006
4345.00000	 0.00006
4350.00000	 0.00006
4355.00000	 0.00006
4360.00000	 0.00006
4365.00000	 0.00007
4370.00000	 0.00006
4375.00000	 0.00007
4380.00000	 0.00005
4385.00000	 0.00005
4390.00000	 0.00005
4395.00000	 0.00006
4400.00000	 0.00007
4405.00000	 0.00007
4410.00000	 0.00007
4415.00000	 0.00007
4420.00000	 0.00007
4425.00000	 0.00007
4430.00000	 0.00006
4435.00000	 0.00007
4440.00000	 0.00007
4445.00000	 0.00007
4450.00000	 0.00007
4455.00000	 0.00008
4460.00000	 0.00007
4465.00000	 0.00007
4470.00000	 0.00007
4475.00000	 0.00007
4480.00000	 0.00008
4485.00000	 0.00008
4490.00000	 0.00008
4495.00000	 0.00008
4500.00000	 0.00008
4505.00000	 0.00009
4510.00000	 0.00009
4515.00000	 0.00010
4520.00000	 0.00010
4525.00000	 0.00012
4530.00000	 0.00014
4535.00000	 0.00016
4540.00000	 0.00021
4545.00000	 0.00025
4550.00000	 0.00018
4555.00000	 0.00011
4560.00000	 0.00008
4565.00000	 0.00005
4570.00000	 0.00004
4575.00000	 0.00004
4580.00000	 0.00004
4585.00000	 0.00004
4590.00000	 0.00004
4595.00000	 0.00004
4600.00000	 0.00004
4605.00000	 0.00004
4610.00000	 0.00004
4615.00000	 0.00004
4620.00000	 0.00004
4625.00000	 0.00004
4630.00000	 0.00004
4635.00000	 0.00004
4640.00000	 0.00004
4645.00000	 0.00004
4650.00000	 0.00004
4655.00000	 0.00004
4660.00000	 0.00003
4665.00000	 0.00004
4670.00000	 0.00003
4675.00000	 0.00004
4680.00000	 0.00003
4685.00000	 0.00003
4690.00000	 0.00003
4695.00000	 0.00002
4700.00000	 0.00003
4705.00000	 0.00006
4710.00000	 0.00008
4715.00000	 0.00008
4720.00000	 0.00007
4725.00000	 0.00007
4730.00000	 0.00007
4735.00000	 0.00006
4740.00000	 0.00007
4745.00000	 0.00006
4750.00000	 0.00006
4755.00000	 0.00006
4760.00000	 0.00006
4765.00000	 0.00006
4770.00000	 0.00006
4775.00000	 0.00006
4780.00000	 0.00006
4785.00000	 0.00006
4790.00000	 0.00006
4795.00000	 0.00006
4800.00000	 0.00007
4805.00000	 0.00006
4810.00000	 0.00006
4815.00000	 0.00007
4820.00000	 0.00006
4825.00000	 0.00007
4830.00000	 0.00007
4835.00000	 0.00008
4840.00000	 0.00008
4845.00000	 0.00008
4850.00000	 0.00010
4855.00000	 0.00012
4860.00000	 0.00015
4865.00000	 0.00019
4870.00000	 0.00020
4875.00000	 0.00015
4880.00000	 0.00010
4885.00000	 0.00009
4890.00000	 0.00006
4895.00000	 0.00006
4900.00000	 0.00005
4905.00000	 0.00005
4910.00000	 0.00005
4915.00000	 0.00004
4920.00000	 0.00004
4925.00000	 0.00004
4930.00000	 0.00004
4935.00000	 0.00003
4940.00000	 0.00004
4945.00000	 0.00003
4950.00000	 0.00004
4955.00000	 0.00004
4960.00000	 0.00004
4965.00000	 0.00003
4970.00000	 0.00003
4975.00000	 0.00003
4980.00000	 0.00003
4985.00000	 0.00002
4990.00000	 0.00002
4995.00000	 0.00001
5000.00000	 0.00001
5005.00000	 0.00001
5010.00000	 0.00001
5015.00000	 0.00003
5020.00000	 0.00007
5025.00000	 0.00012
5030.00000	 0.00015
5035.00000	 0.00014
5040.00000	 0.00013
5045.00000	 0.00011
